time,time2,flux,flux_err
2036.280140803426,2036.280140803426,1432911.7249291511,124.42420901521737
2036.2829185711992,2036.2829185711992,1433270.3074084895,124.44716813270601
2036.2843074551447,2036.2843074551447,1433694.4379970378,124.45517594826059
2036.2856963390893,2036.2856963390893,1434007.20063646,124.47962778854618
2036.2870852230342,2036.2870852230342,1433210.8030087904,124.43394488894499
2036.2884741069797,2036.2884741069797,1433055.2728842758,124.43594219893825
2036.2898629909243,2036.2898629909243,1434027.9971823476,124.47747035106393
2036.2912518748692,2036.2912518748692,1434102.3289936432,124.48249908370654
2036.2926407588147,2036.2926407588147,1433671.4434249487,124.45457567421938
2036.294029642643,2036.294029642643,1433372.7962559506,124.44477078834008
2036.2954185265878,2036.2954185265878,1432965.8843381517,124.43435691033044
2036.2968074105331,2036.2968074105331,1433872.0110300665,124.46556062321015
2036.298196294478,2036.298196294478,1433161.347286427,124.437272413152
2036.2995851784228,2036.2995851784228,1434102.3013853284,124.47644653583062
2036.3009740622517,2036.3009740622517,1433169.6436932972,124.44294626454325
2036.3023629461966,2036.3023629461966,1433433.0666118974,124.45295531218815
2036.3037518301414,2036.3037518301414,1434140.636771288,124.47370062964104
2036.3051407140867,2036.3051407140867,1433724.665482668,124.46262224434089
2036.3065295979152,2036.3065295979152,1433569.9767791238,124.45782418152746
2036.3079184818594,2036.3079184818594,1433494.726916613,124.45258258670248
2036.309307365804,2036.309307365804,1433464.554242887,124.45619993847232
2036.3106962497488,2036.3106962497488,1433393.7279883071,124.44039188628626
2036.3120851335773,2036.3120851335773,1433761.7378273136,124.46093921638628
2036.3134740175226,2036.3134740175226,1433662.1854278129,124.45488169664138
2036.3148629014674,2036.3148629014674,1433332.469361165,124.44806663449015
2036.316251785296,2036.316251785296,1434113.2301414574,124.48048290796433
2036.3176406692412,2036.3176406692412,1433711.269294568,124.46227308656627
2036.3190295530696,2036.3190295530696,1433675.566075476,124.45229225239285
2036.3204184370145,2036.3204184370145,1433317.5306151994,124.45211962086061
2036.3218073209598,2036.3218073209598,1432944.792367187,124.42710905887833
2036.3231962047882,2036.3231962047882,1433554.475204041,124.45302593373333
2036.324585088733,2036.324585088733,1433978.2477313867,124.47611310759586
2036.325973972562,2036.325973972562,1432664.08382357,124.41269058309526
2036.3273628565069,2036.3273628565069,1433623.5796717927,124.4608293676167
2036.3287517403353,2036.3287517403353,1433493.2539976104,124.44653250743872
2036.3301406242806,2036.3301406242806,1433538.111406669,124.44982830693259
2036.3315295081097,2036.3315295081097,1432512.9882425405,124.40815748349262
2036.3329183920544,2036.3329183920544,1432713.35637632,124.41425259993326
2036.3343072758828,2036.3343072758828,1433838.846381609,124.46678852333461
2036.3356961598283,2036.3356961598283,1433545.6005970142,124.45594099921466
2036.3370850436565,2036.3370850436565,1434307.653154942,124.48646465705619
2036.3384739276014,2036.3384739276014,1434088.7888870335,124.47420666547748
2036.3398628114305,2036.3398628114305,1433947.7004769542,124.47506574486113
2036.3412516952587,2036.3412516952587,1433596.1401088657,124.45762017148648
2036.3426405792036,2036.3426405792036,1433406.3551253635,124.45086018811803
2036.344029463032,2036.344029463032,1433865.3198154715,124.46250847393765
2036.3454183468596,2036.3454183468596,1433911.9923134828,124.46842831994586
2036.3468072308044,2036.3468072308044,1433960.7127254775,124.47345741788689
2036.3481961146333,2036.3481961146333,1433458.4108285708,124.4442057773784
2036.3495849984618,2036.3495849984618,1433908.0700715864,124.46953458201128
2036.3509738824066,2036.3509738824066,1432785.3596927437,124.42546086914848
2036.3523627662355,2036.3523627662355,1434364.1597151675,124.48748054523395
2036.353751650064,2036.353751650064,1434252.5910611532,124.47862360411526
2036.3551405340088,2036.3551405340088,1433877.0157489036,124.47309259936462
2036.3565294178377,2036.3565294178377,1433441.9758339634,124.44711320225552
2036.3579183016661,2036.3579183016661,1433131.4389137854,124.43501221772351
2036.3593071854946,2036.3593071854946,1433923.4736469572,124.46468186296866
2036.3606960694399,2036.3606960694399,1433747.9894978888,124.46304986320237
2036.3620849532683,2036.3620849532683,1433415.4417406574,124.45091119343
2036.3634738370968,2036.3634738370968,1433567.1245717276,124.45088372903385
2036.3648627209257,2036.3648627209257,1433625.173969816,124.45846367237344
2036.366251604754,2036.366251604754,1433794.3504406393,124.4496909836963
2036.3676404885825,2036.3676404885825,1433717.7614257324,124.46162576899958
2036.3690293725278,2036.3690293725278,1433047.789624965,124.4338232442751
2036.3704182563563,2036.3704182563563,1433984.6213833273,124.46523108884665
2036.3718071401847,2036.3718071401847,1433924.5454068698,124.46623930432902
2036.3731960240136,2036.3731960240136,1432961.839510479,124.42743084575443
2036.374584907842,2036.374584907842,1433886.349062244,124.46883238134356
2036.3759737916705,2036.3759737916705,1433551.7609306131,124.45545058247751
2036.3773626754994,2036.3773626754994,1433457.543755636,124.44186330873546
2036.3787515593278,2036.3787515593278,1433447.966576809,124.44747024975035
2036.3801404431554,2036.3801404431554,1433444.4631736919,124.44708966062646
2036.3815293269838,2036.3815293269838,1433809.2548461028,124.46179054106324
2036.3829182108122,2036.3829182108122,1433377.0516954216,124.44249111035185
2036.3843070946407,2036.3843070946407,1433052.3955138633,124.42664207400479
2036.3856959784696,2036.3856959784696,1433680.1541239496,124.46021342807708
2036.387084862298,2036.387084862298,1433892.8855585232,124.46714943736158
2036.3884737461265,2036.3884737461265,1434186.0070163433,124.48208722166615
2036.3898626299554,2036.3898626299554,1433198.3274539155,124.43518879696973
2036.3912515137838,2036.3912515137838,1434265.437867955,124.48683335874321
2036.3926403976122,2036.3926403976122,1433589.615573752,124.45195091254094
2036.3940292814411,2036.3940292814411,1434145.4077421746,124.4796160208068
2036.3954181652696,2036.3954181652696,1433383.4227503033,124.44749379130742
2036.396807049098,2036.396807049098,1433819.087438811,124.46514085904735
2036.398195932927,2036.398195932927,1433196.0305667247,124.43090766063712
2036.3995848166394,2036.3995848166394,1434570.6270778477,124.49498766265653
2036.4009737004678,2036.4009737004678,1433977.714494736,124.46605100011207
2036.4023625842963,2036.4023625842963,1433674.4400637813,124.45501116743954
2036.4037514681252,2036.4037514681252,1433453.3106085046,124.45528580202007
2036.4051403519536,2036.4051403519536,1433840.1028796895,124.45946409624702
2036.406529235782,2036.406529235782,1434044.020114444,124.46599607799513
2036.4079181194945,2036.4079181194945,1434039.4251969573,124.47366924750591
2036.409307003323,2036.409307003323,1433814.716639305,124.45847936535903
2036.4106958871514,2036.4106958871514,1433640.5623192866,124.45500332072834
2036.4120847709803,2036.4120847709803,1433250.318477699,124.43725671749196
2036.4134736546923,2036.4134736546923,1433745.5151761454,124.4580831168671
2036.4148625385208,2036.4148625385208,1433652.8436759019,124.45047176236416
2036.4162514223497,2036.4162514223497,1433890.3829805234,124.46451709473267
2036.417640306061,2036.417640306061,1433698.7542376632,124.45655695989866
2036.4190291898888,2036.4190291898888,1433127.239906906,124.42950281936756
2036.4204180737177,2036.4204180737177,1434116.0348355614,124.46720828194067
2036.4218069574297,2036.4218069574297,1433879.8852971105,124.4614099957292
2036.4231958412581,2036.4231958412581,1433153.0783932384,124.43649939954314
2036.424584725087,2036.424584725087,1433213.8498521827,124.42664992250454
2036.425973608799,2036.425973608799,1433321.1760593518,124.44236947403606
2036.4273624926275,2036.4273624926275,1433303.7412187173,124.43795124855399
2036.4287513764564,2036.4287513764564,1433775.0533996888,124.459130622516
2036.4301402601684,2036.4301402601684,1433811.7145999775,124.45876968523552
2036.4315291439968,2036.4315291439968,1433547.7906585187,124.44841583212299
2036.4329180277093,2036.4329180277093,1433317.4724950932,124.44043112444403
2036.4343069115378,2036.4343069115378,1433469.1585080745,124.44982830693259
2036.4356957952498,2036.4356957952498,1433570.1819513687,124.45147617394902
2036.4370846790787,2036.4370846790787,1433175.894855556,124.43261071509751
2036.4384735627907,2036.4384735627907,1433696.4558772903,124.44698372324055
2036.4398624466191,2036.4398624466191,1433523.9025101827,124.4480901759344
2036.4412513303316,2036.4412513303316,1433438.3828839336,124.44061161981044
2036.44264021416,2036.44264021416,1433580.0440211876,124.45474830234481
2036.444029097872,2036.444029097872,1433770.1036619148,124.4590913902536
2036.445417981701,2036.445417981701,1434151.325854479,124.47380654428866
2036.446806865413,2036.446806865413,1434011.901942453,124.46911483125041
2036.448195749125,2036.448195749125,1433615.7944701037,124.45164488291225
2036.449584632954,2036.449584632954,1433321.4629412282,124.43939130908267
2036.450973516666,2036.450973516666,1433809.7815814111,124.4635834039419
2036.4523624004944,2036.4523624004944,1433617.3936795497,124.45851859781435
2036.4537512842062,2036.4537512842062,1433556.6498919004,124.45921301022676
2036.4551401679175,2036.4551401679175,1433199.1836162612,124.42920850703624
2036.456529051746,2036.456529051746,1433354.4520553402,124.44284032363011
2036.4579179354585,2036.4579179354585,1433742.1219696188,124.45216277876612
2036.4593068191705,2036.4593068191705,1433140.6142872332,124.43154336571978
2036.460695702999,2036.460695702999,1433599.4644543447,124.45193521873213
2036.4620845867114,2036.4620845867114,1433149.4089520762,124.42992270375522
2036.4634734704234,2036.4634734704234,1433923.6643240748,124.46777318848441
2036.4648623541352,2036.4648623541352,1433758.5074806581,124.45763978785111
2036.4662512379643,2036.4662512379643,1433267.9726747978,124.43406653349597
2036.4676401216768,2036.4676401216768,1433653.9523088003,124.45329272587568
2036.4690290053888,2036.4690290053888,1433913.8970715434,124.4642856342232
2036.4704178891009,2036.4704178891009,1433825.8809025772,124.46401101950113
2036.4718067728134,2036.4718067728134,1433980.5369560416,124.46376778881275
2036.4731956566418,2036.4731956566418,1433212.000547374,124.42855709326739
2036.4745845403538,2036.4745845403538,1433213.8164805018,124.43285400668908
2036.4759734240663,2036.4759734240663,1433435.6120673483,124.44057630552022
2036.4773623077783,2036.4773623077783,1433395.736368825,124.44213012480942
2036.4787511914903,2036.4787511914903,1433319.4956212593,124.43348577779416
2036.4801400752028,2036.4801400752028,1433309.0982016441,124.4333209682499
2036.4815289589149,2036.4815289589149,1434405.2671397016,124.48619793600615
2036.4829178427433,2036.4829178427433,1433279.3951220608,124.43219083978028
2036.4843067264558,2036.4843067264558,1433556.7677022442,124.45124861265957
2036.4856956101678,2036.4856956101678,1433762.7547561422,124.45624701827948
2036.4870844938798,2036.4870844938798,1433463.3616388473,124.44233808399977
2036.4884733775923,2036.4884733775923,1433700.5641044704,124.45237072119197
2036.4898622613043,2036.4898622613043,1433093.5350937222,124.43477677833879
2036.4912511450154,2036.4912511450154,1433401.4520036343,124.4384927446588
2036.4926400287275,2036.4926400287275,1434620.7668061177,124.49276773672437
2036.4940289124395,2036.4940289124395,1433856.7186856966,124.46301455527863
2036.4954177961515,2036.4954177961515,1433796.0156933826,124.4548934667195
2036.496806679864,2036.496806679864,1433778.7775874375,124.45739654471123
2036.498195563576,2036.498195563576,1433592.2575373955,124.45210392707308
2036.499584447288,2036.499584447288,1433504.492398388,124.44632847888683
2036.5009733310005,2036.5009733310005,1434035.422507025,124.4677574966706
2036.5023622147125,2036.5023622147125,1433725.4695942805,124.45429319131583
2036.5037510983082,2036.5037510983082,1433389.3182851048,124.44216936241911
2036.5051399820206,2036.5051399820206,1434368.8888796153,124.48983784455059
2036.5065288657327,2036.5065288657327,1433528.8636052818,124.43999558019921
2036.5079177494447,2036.5079177494447,1433838.3253021734,124.457282769531
2036.5093066331572,2036.5093066331572,1434144.9926904498,124.48161259800581
2036.5106955168692,2036.5106955168692,1433731.4948270468,124.44689348021107
2036.5120844005812,2036.5120844005812,1433609.2274099102,124.44448828317991
2036.5134732841773,2036.5134732841773,1433291.309244416,124.43545562735527
2036.5148621678893,2036.5148621678893,1433467.020621753,124.44146700733441
2036.516251051601,2036.516251051601,1433613.0758912247,124.44890627658204
2036.5176399353138,2036.5176399353138,1433880.7275547525,124.45484246303958
2036.5190288190258,2036.5190288190258,1433293.8716155302,124.43866539509534
2036.5204177026212,2036.5204177026212,1434127.2060973558,124.47536387148061
2036.521806586334,2036.521806586334,1433637.801997562,124.44074110545549
2036.523195470046,2036.523195470046,1433800.9815639548,124.46361478862005
2036.5245843536413,2036.5245843536413,1433565.648669283,124.44641872232603
2036.525973237354,2036.525973237354,1433387.0797694607,124.4375
2036.5273621210652,2036.5273621210652,1433611.100020749,124.45833420516684
2036.52875100466,2036.52875100466,1433013.4605934063,124.42581013022378
2036.5301398883728,2036.5301398883728,1434622.4267064433,124.49078310511585
2036.5315287720848,2036.5315287720848,1433843.6150468607,124.4567962813803
2036.5329176556802,2036.5329176556802,1433519.9663602302,124.44552805595306
2036.534306539393,2036.534306539393,1433700.8218097673,124.44989108321872
2036.5356954231054,2036.5356954231054,1433894.900027388,124.45771825327868
2036.537084306701,2036.537084306701,1434045.792552686,124.46551354692592
2036.538473190413,2036.538473190413,1433870.9090656633,124.45431673158228
2036.539862074009,2036.539862074009,1433767.8668922202,124.4643876338228
2036.541250957721,2036.541250957721,1433571.0155916444,124.44216936241911
2036.5426398414331,2036.5426398414331,1433866.6827917984,124.4567805881825
2036.5440287250292,2036.5440287250292,1433571.5819103858,124.45092688736794
2036.5454176087412,2036.5454176087412,1433505.2828041376,124.44417438780532
2036.5468064923368,2036.5468064923368,1433311.1334899825,124.43319539892681
2036.5481953760493,2036.5481953760493,1433414.0994334423,124.44583017697902
2036.549584259645,2036.549584259645,1433320.3004069598,124.43148058017714
2036.550973143357,2036.550973143357,1433735.6840436936,124.45281799240225
2036.552362026953,2036.552362026953,1433631.5985135976,124.45732984892854
2036.5537509105486,2036.5537509105486,1434179.229869057,124.47184122448137
2036.5551397942606,2036.5551397942606,1433336.0974948036,124.44261274654876
2036.5565286778567,2036.5565286778567,1433678.0729396376,124.45162134214041
2036.5579175615687,2036.5579175615687,1434465.1219529433,124.48428380346854
2036.5593064451643,2036.5593064451643,1433699.1556203682,124.44885919399783
2036.5606953287604,2036.5606953287604,1433587.6695755078,124.4514094749935
2036.5620842124724,2036.5620842124724,1433750.1585386333,124.45636079440656
2036.5634730960671,2036.5634730960671,1433935.1785869414,124.45620778510809
2036.5648619797792,2036.5648619797792,1433481.404682588,124.44346812031759
2036.5662508633748,2036.5662508633748,1433406.5653126368,124.43751569562934
2036.5676397469701,2036.5676397469701,1433693.4595813772,124.45889130552304
2036.5690286306829,2036.5690286306829,1433842.2906132978,124.4597308745885
2036.5704175142785,2036.5704175142785,1433915.2637353837,124.46342648043239
2036.5718063978738,2036.5718063978738,1434094.371581521,124.46604315409685
2036.5731952814701,2036.5731952814701,1433945.8925773061,124.46365401945663
2036.5745841651822,2036.5745841651822,1433713.2066930863,124.45594099921466
2036.5759730487775,2036.5759730487775,1433186.5475533258,124.42922812787998
2036.5773619323738,2036.5773619323738,1433726.8220049685,124.44945557208155
2036.5787508159694,2036.5787508159694,1434025.2816882182,124.46182977247483
2036.5801396996812,2036.5801396996812,1434516.2226711488,124.48854741501324
2036.5815285832775,2036.5815285832775,1433944.2408347798,124.46317147930749
2036.5829174668731,2036.5829174668731,1433558.5064851355,124.44489242230875
2036.5843063504685,2036.5843063504685,1432869.1726171141,124.41283579654271
2036.5856952340648,2036.5856952340648,1433794.008455327,124.45831458891166
2036.5870841176602,2036.5870841176602,1433573.1053098931,124.4428560185859
2036.588473001372,2036.588473001372,1434226.498311395,124.47768217385396
2036.5898618849685,2036.5898618849685,1433490.013132796,124.4401250664853
2036.591250768564,2036.591250768564,1433323.0152138956,124.43651509529869
2036.5926396521593,2036.5926396521593,1433607.2596587264,124.45071501903877
2036.5940285357558,2036.5940285357558,1433643.5119390208,124.45311617231607
2036.5954174193512,2036.5954174193512,1434020.6692309827,124.467498581457
2036.5968063029466,2036.5968063029466,1433603.0160143692,124.44567715473286
2036.598195186543,2036.598195186543,1433791.5700872296,124.4549562404507
2036.5995840701385,2036.5995840701385,1433560.6956119563,124.44751733286004
2036.6009729537334,2036.6009729537334,1433296.9042020047,124.43499652177839
2036.602361837329,2036.602361837329,1433813.303861999,124.45060123775015
2036.603750720925,2036.603750720925,1433706.3881500862,124.45279052842689
2036.6051396045207,2036.6051396045207,1433361.805847188,124.44497874311763
2036.6065284881163,2036.6065284881163,1433174.65496117,124.42894166325414
2036.6079173717123,2036.6079173717123,1433447.1697039742,124.43906562927697
2036.609306255308,2036.609306255308,1433876.1337798196,124.46125699263807
2036.6106951389036,2036.6106951389036,1433649.6366445734,124.4486708634829
2036.6120840224996,2036.6120840224996,1433321.2759544237,124.43265387976943
2036.6134729060952,2036.6134729060952,1433784.4961715725,124.46093137004881
2036.6148617896906,2036.6148617896906,1433552.5935460294,124.4414003030141
2036.616250673287,2036.616250673287,1433605.573305754,124.45224124764688
2036.617639556766,2036.617639556766,1433594.3749728552,124.4442764038889
2036.6190284403615,2036.6190284403615,1433655.1691257602,124.4495615073633
2036.6204173239578,2036.6204173239578,1433290.4376402255,124.44111779020228
2036.6218062075534,2036.6218062075534,1433484.37270452,124.44355836583105
2036.6231950911488,2036.6231950911488,1433526.869038172,124.43828477904218
2036.624583974745,2036.624583974745,1433816.5524778701,124.45922085667257
2036.6259728582243,2036.6259728582243,1432805.973896978,124.40692900467803
2036.6273617418196,2036.6273617418196,1433295.3838551703,124.43635421371039
2036.628750625416,2036.628750625416,1433592.3693823477,124.45231579303778
2036.6301395090115,2036.6301395090115,1433585.1598714648,124.44158079697478
2036.631528392607,2036.631528392607,1433236.7437272489,124.43092335709801
2036.6329172760868,2036.6329172760868,1433449.946726732,124.440085828231
2036.6343061596824,2036.6343061596824,1433044.0232459495,124.42156399088343
2036.6356950432778,2036.6356950432778,1433437.2880100966,124.43756278250551
2036.6370839267568,2036.6370839267568,1434151.5163742083,124.47013870678983
2036.6384728103517,2036.6384728103517,1433606.3296287237,124.4478822263561
2036.639861693947,2036.639861693947,1433080.1129767145,124.42569632616086
2036.6412505774272,2036.6412505774272,1433815.1210134204,124.46038997156887
2036.6426394610226,2036.6426394610226,1434059.9914220716,124.4635834039419
2036.644028344618,2036.644028344618,1433579.891286138,124.45099751006418
2036.645417228098,2036.645417228098,1433678.3091416354,124.45207253949208
2036.6468061116934,2036.6468061116934,1433951.2774958557,124.46341078807056
2036.6481949952888,2036.6481949952888,1434072.925296836,124.46307340181264
